yIndex,   yValue,        a,       Ta,        b,       Tb,     e(a),    e(Ta),     e(b),    e(Tb),      SSR,       DF, chi-sq/ndf
    0,   2.8010,   9.4214,  31.7063,  -6.6286,  31.1206,   0.0000,   3.6400,   0.0000,   0.0000, 7.8378e+03,   796,  1.01960 
    1,   2.8050,  14.6110,  15.6816,  -9.7259,  15.3249,   7.9800, 9346.0000,   7.9800,   0.0000, 6.8520e+03,   796,  0.98954 
    2,   2.8090,  27.0311,  24.1788, -21.0803,  30.6514, 544.1000,  63.1000, 545.0000,  88.1000, 6.7578e+03,   796,  0.91353 
    3,   2.8130,   9.8593,  21.5314,  -3.6839,  36.2127,  57.1500,  40.5000,  58.0900, 133.4000, 8.4359e+03,   796,  0.98722 
    4,   2.8170,   6.6264,   9.6847,   1.3222,  57.9618,   1.8250,   5.1770,   1.4860,  50.3100, 6.1605e+03,   796,  0.69684 
    5,   2.8210,  56.1173,   1.9617,   2.8304,  33.9721,  54.7400,   0.8275,   0.8606,  10.5200, 6.4365e+03,   796,  0.68047 
    6,   2.8250,  12.8816,   4.4698,   1.3446, 126.1850,   6.7340,   1.8360,   0.4522,  69.2800, 7.2327e+03,   796,  1.09502 
    7,   2.8290,  84.4771,   1.3159,   2.0678,  60.2908, 242.4000,   1.1060,   0.4914,  18.2500, 7.2634e+03,   796,  0.77710 
    8,   2.8330,   5.5623,  25.6319,  -1.5137,  24.5949,   0.0000,   0.0000,   0.0000,   0.0000, 7.9914e+03,   796,  1.12100 
    9,   2.8370,   6.7764,  38.1647,  -3.6566,  39.9287,   0.0000,   0.0000,   0.0000,   0.0000, 6.8690e+03,   796,  1.05407 
   10,   2.8410,  10.2024,  18.8360,  -8.4512,  11.2345,  71.3000,  29.6100,  69.3800,  31.8700, 6.5246e+03,   796,  1.48318 
   12,   2.8490,  11.6353,  19.5555,  -7.0894,  19.2196,   0.0000,   0.0000,   0.0000,   0.0000, 8.1309e+03,   796,  1.20369 
   13,   2.8530,  12.2381,  14.7280,  -7.2528,  14.9620,   0.0000,   0.0000,   0.0000,   0.0000, 6.1796e+03,   796,  1.06644 
   14,   2.8570,   8.6022,  18.7691,  -3.3737,  19.7018,   0.0000, 4189.0000,   0.0000,   1.0400, 7.4061e+03,   796,  1.05636 
   15,   2.8610,  12.7266,  30.5276,  -8.3384,  30.1853,   0.0000,   0.0000,   0.0000,   0.0000, 9.0225e+03,   796,  0.83712 
   16,   2.8650,  11.8053,  34.6298,  -8.1175,  48.1718, 260.4000, 137.4000, 261.1000, 243.4000, 7.9434e+03,   796,  0.93858 
   17,   2.8690,  11.2812,   2.6458,   3.4329,  20.8021,  26.8800,   4.0910,   2.2400,  10.4100, 7.5443e+03,   796,  1.30931 
   18,   2.8730,  12.2226,  18.9515,  -7.0955,  19.3572,   0.0000,   0.0000,   0.0000,   0.0000, 7.5855e+03,   796,  1.18434 
   19,   2.8770,  12.1085,  17.0614,  -7.6195,  16.7847,   0.0000,   0.0000,   0.0000,   0.0000, 7.0697e+03,   796,  1.45011 
   20,   2.8810,   4.4012,  28.3227,  -0.7676,  39.9686, 169.5000, 210.7000, 170.2000, 1424.0000, 5.6649e+03,   796,  0.59315 
   21,   2.8850,   3.9054,  20.7154,   0.6033,  19.2051,   0.0000, 3453.0000,   0.0000,   0.0000, 6.1594e+03,   796,  0.69128 
   22,   2.8890,  17.2578,  26.9528, -11.6227,  36.9109, 251.7000,  68.9500, 252.5000, 117.5000, 7.5784e+03,   796,  0.72815 
   23,   2.8930,  11.7025,  31.4221,  -8.1613,  39.6910, 656.1000, 220.9000, 656.8000, 354.7000, 7.8329e+03,   796,  1.06216 
   24,   2.8970,   8.0543,   9.6864,   1.0073, 182.8780,   1.8320,   3.1300,   0.5610, 193.2000, 6.4193e+03,   796,  0.70399 
   26,   2.9050,   5.7355,   8.3701,   1.2120,  82.7484,   2.1120,   4.5010,   0.7987,  57.3500, 5.7823e+03,   796,  0.97198 
   27,   2.9090,   0.0000,   2.1366,   0.1158,   0.0000,   0.0000,   0.0000,   0.0000,   0.0000, 5.7823e+03,   796,  0.64815 
   28,   2.9130,  47.3232,   1.7997,   3.1976,  26.1067,  80.4100,   1.2510,   1.2080,   9.3680, 7.2921e+03,   796,  0.78214 
   29,   2.9170,  10.5576,   8.5726,  -0.5552,   3.1048,   2.3330,   2.1870,   0.3613,   0.0000, 7.4910e+03,   796,  1.15015 
   30,   2.9210,   8.9063,   9.2957,   0.9012,  26.0398,   7.0020,   8.3620,   8.5530, 105.6000, 6.4248e+03,   796,  0.95907 
   31,   2.9250,   5.5625,  26.3469,  -1.1769, 108.9270,   3.6950,  19.8600,   4.1990, 298.8000, 6.6876e+03,   796,  0.86977 
   32,   2.9290,   7.3877,  11.2058,  -0.0812, 295.6060,   1.5070,   3.4990,   0.5227, 5397.0000, 6.2452e+03,   796,  1.03117 
   33,   2.9330,   9.5938,  35.8060,  -5.1228,  35.4773,   0.0000,   0.0000,   0.0000,   0.0000, 6.4981e+03,   796,  0.95310 
   35,   2.9410,  12.8720,  19.7337,  -7.2044,  19.7155,   0.0000,   0.0000,   0.0000,   0.0000, 7.6972e+03,   796,  1.02040 
   36,   2.9450,  15.2299,   9.7049,  -8.5072,   7.1648, 617.8000,  52.9600, 612.0000,  94.5400, 7.7254e+03,   796,  1.44502 
   37,   2.9490,   8.3707,  14.3955,  -2.4681,  14.2179,   0.0000,   0.0000,   0.0000,   0.0000, 5.6842e+03,   796,  0.63101 
   38,   2.9530,  10.3353,  33.9603,  -5.5946,  34.2015,   0.0000,   0.0000,   0.0000,   0.0000, 6.9994e+03,   796,  1.17984 
   39,   2.9570,  18.5052,  23.2235, -11.9868,  29.3321, 588.9000,  94.3900, 589.9000, 157.8000, 7.1473e+03,   796,  0.97148 
   40,   2.9610,   0.0000,  11.8835,   2.8127,   0.0000,   0.0000,   0.0000,   0.0000,   0.0000, 7.1473e+03,   796,  0.72358 
   41,   2.9650,  12.9332,   8.3204, -11.9583,   3.9733,  56.4200,  10.4200,  43.5600,  13.0400, 6.6623e+03,   796,  1.14928 
   42,   2.9690,  22.2463,  31.8672, -15.7899,  44.3018, 212.2000,  55.1300, 212.8000,  92.8600, 5.9667e+03,   796,  1.02078 
   44,   2.9770,  25.8588,  26.6100, -19.9298,  33.1914, 657.9000,  80.9100, 658.7000, 114.4000, 6.4015e+03,   796,  1.43121 
   45,   2.9810,   0.0000,   7.1060,   2.6201,   0.0000,   0.0000,   0.0000,   0.0000,   0.0000, 6.4015e+03,   796,  1.04612 
   46,   2.9850,  14.9817,  17.1014,  -8.0361,  22.5321, 440.4000,  78.1700, 441.8000, 157.3000, 8.6702e+03,   796,  1.48149 
   47,   2.9890,   4.9895,  19.7621,   0.0665,  91.1713,   2.3940,  14.8500,   2.9000, 3061.0000, 7.6643e+03,   796,  1.01954 
   48,   2.9930,  13.9802,   4.2230,   2.6467,  29.6852,   8.2190,   2.5360,   1.8830,  16.1100, 7.4099e+03,   796,  0.76164 
   50,   3.0010,  44.7008,  27.7672, -37.8201,  30.3948, 9635.0000, 281.4000, 9636.0000, 337.9000, 6.4637e+03,   796,  1.13144 
   51,   3.0050,   1.1465,  14.2388,   4.6422,  13.4885,   0.0000,   0.0000,   0.0000, 5354.0000, 6.6022e+03,   796,  0.95544 
   53,   3.0130,   0.0000,  18.8045,  -0.1154,   0.0000,   0.0000,   0.0000,   0.0000,   0.0000, 6.5964e+03,   796,  0.85063 
   54,   3.0170,  13.1349,  29.7815,  -7.4615,  54.9076,  32.5300,  27.3300,  33.0900,  69.7500, 5.2179e+03,   796,  0.80054 
   55,   3.0210,   9.2525,  18.9256,  -2.3977,  97.6265,   1.9130,   6.9230,   2.3420,  80.3500, 7.2063e+03,   796,  0.74712 
   56,   3.0250,  21.5418,  34.6843, -15.6384,  46.6569, 319.5000,  82.4400, 320.1000, 135.0000, 6.4510e+03,   796,  0.88725 
   57,   3.0290,  24.1122,  31.7263, -17.5141,  44.6546, 190.9000,  47.4500, 191.5000,  78.6800, 6.0089e+03,   796,  0.65299 
   59,   3.0370,  16.5255,  33.7235, -10.7566,  52.3027, 108.0000,  54.3200, 108.6000, 109.9000, 7.2033e+03,   796,  1.26172 
   60,   3.0410,  20.2713,  40.8229, -14.8718,  55.7771, 329.7000, 110.1000, 330.2000, 187.3000, 6.5522e+03,   796,  1.09829 
   61,   3.0450,  12.5056,   4.7975,   3.6096,  22.1061,   5.4310,   3.2500,   3.4740,  12.7800, 5.7687e+03,   796,  1.06219 
   62,   3.0490,   9.1141,  22.3429,  -1.9187,  21.8201,   0.0000,   1.6300,   0.0000,   8.3600, 6.9982e+03,   796,  1.01499 
   63,   3.0530,  12.1179,  30.1261,  -6.1956,  29.5752,   0.0000,   0.0000,   0.0000,   0.0000, 6.4473e+03,   796,  1.07398 
   64,   3.0570,  18.2341,  25.9611, -11.0469,  33.5221, 433.3000,  86.4100, 434.1000, 157.8000, 6.6660e+03,   796,  1.21384 
   65,   3.0610,  11.6099,  17.1707,  -2.9044,  59.8751,   3.4300,   6.4040,   4.0580,  47.0400, 6.6018e+03,   796,  0.81328 
   66,   3.0650,  26.0070,  22.4993, -18.5010,  27.2684, 1097.0000,  98.3800, 1098.0000, 146.7000, 7.5537e+03,   796,  1.37128 
   67,   3.0690,   9.8931,  12.4464,   0.3326,  12.7929,   0.0000,   0.0000,   0.0000,   0.0000, 7.3702e+03,   796,  0.72701 
   68,   3.0730,   0.0000,   8.0046,   3.8144,   0.0000,   0.0000,   0.0000,   0.0000,   0.0000, 7.3702e+03,   796,  0.99955 
   69,   3.0770,  40.1601,  25.3122, -30.2720,  31.7135, 684.2000,  52.7900, 685.1000,  76.1300, 7.8779e+03,   796,  0.86059 
   70,   3.0810,  10.4626,  15.2950,  -0.8390,  55.4615,   3.2670,   6.7550,   3.9570, 148.8000, 7.7501e+03,   796,  0.77804 
   71,   3.0850,  13.0115,   8.0159,  -0.3427, 1912.5900,   2.4360,   1.6660,   0.3457,   3.5100, 6.7737e+03,   796,  0.81633 
   72,   3.0890,   9.0839,  20.0964,  -1.6017,  71.4505,   3.8680,  10.0800,   4.4880, 119.6000, 7.5707e+03,   796,  0.83529 
   73,   3.0930,  10.6508,  19.3794,  -2.4607,  51.2547,   8.1410,  11.7800,   8.9140,  80.4400, 7.7185e+03,   796,  1.08073 
   74,   3.0970,   0.0000,  -6.4251,   3.5833,   0.0000,   0.0000,   0.0000,   0.0000,   0.0000, 7.7185e+03,   796,  1.09373 
   75,   3.1010,   0.0000,  26.5017,  -2.5041,   0.0000,   0.0000,   0.0000,   0.0000,   0.0000, 7.7185e+03,   796,  1.15013 
   76,   3.1050,  28.1131,  25.7508, -18.7900,  35.5184, 233.2000,  38.5900, 234.1000,  66.0600, 7.6121e+03,   796,  0.77669 
   77,   3.1090,  19.8252,  20.5489,  -8.4870,  27.1458, 344.6000,  55.6900, 345.6000, 142.3000, 6.7068e+03,   796,  0.84498 
   78,   3.1130,  10.8595,   6.8112,   4.7616,  23.7696,   4.4030,   5.2140,   5.8450,  14.7500, 7.0316e+03,   796,  1.25800 
   79,   3.1170,  13.8623,  14.3802,  -1.4796,  65.9326,   1.8020,   3.4950,   2.2030,  67.7100, 5.8681e+03,   796,  0.93487 
   80,   3.1210,  13.1045,  16.6301,  -1.8411,  83.1712,   1.6940,   4.0120,   2.0710,  72.9300, 6.0967e+03,   796,  0.99514 
   81,   3.1250,  23.0937,  21.7271, -11.1421,  33.3167,  91.9200,  22.0600,  92.7800,  53.7900, 6.6707e+03,   796,  1.07242 
   82,   3.1290,  28.4697,  19.2690, -15.4719,  25.8602, 315.9000,  35.5900, 317.1000,  71.7700, 7.5254e+03,   796,  0.74494 
   83,   3.1330,  24.9684,  22.2084, -13.0114,  33.7117, 102.5000,  22.5400, 103.4000,  50.8200, 7.1860e+03,   796,  0.67819 
   84,   3.1370,  18.9138,  23.3588,  -9.3524,  31.8600, 255.7000,  55.2300, 256.6000, 125.5000, 7.5126e+03,   796,  1.09609 
   85,   3.1410,  13.0294,  16.2150,  -1.3317, 123.6180,   1.2450,   3.4230,   1.3360, 140.5000, 6.7487e+03,   796,  1.09368 
   86,   3.1450,  20.4031,  23.7211,  -8.3862,  37.3279,  77.8300,  24.5100,  78.6200,  72.2400, 6.7489e+03,   796,  1.20614 
   87,   3.1490,  22.7747,  22.4572, -10.0861,  34.9902,  84.2800,  22.0700,  85.1300,  59.4300, 7.0069e+03,   796,  0.79608 
   88,   3.1530,  20.7167,  27.5263,  -9.6219,  52.8631,  29.5300,  16.0500,  30.2000,  50.1200, 6.9966e+03,   796,  1.09168 
   89,   3.1570,  18.9877,  12.8024,  -2.3915, 211.1290,   1.2670,   1.5350,   0.6598, 117.0000, 6.0341e+03,   796,  0.93239 
   90,   3.1610,  17.0175,  13.0981,  -1.6038, 154.7510,   1.4280,   2.1210,   0.9173, 133.2000, 7.9709e+03,   796,  0.88566 
   91,   3.1650,  18.6685,  14.9508,  -3.0214,  78.8707,   1.5440,   2.4920,   1.8360,  37.7700, 6.0952e+03,   796,  0.83632 
   92,   3.1690,  22.5290,  21.8584,  -8.6426,  27.9409, 550.9000,  72.3000, 552.0000, 204.3000, 8.2671e+03,   796,  1.04235 
   93,   3.1730,   7.3504,  17.4721,   5.7331,  17.3146,   0.0000,   0.0000,   0.0000,   0.0000, 6.9274e+03,   796,  1.08215 
   94,   3.1770,  20.9403,  19.5468,  -6.5789,  18.6468,   0.0000, 1900.0000,   0.0000, 6222.0000, 8.5618e+03,   796,  1.43006 
   95,   3.1810,  24.2499,  31.4815, -11.8826,  56.9010,  39.9100,  18.2000,  40.4900,  54.1900, 5.9111e+03,   796,  0.66214 
   96,   3.1850,  16.0343,  23.8056,  -2.3772, 120.4950,   2.5520,   5.5350,   3.0380, 140.2000, 7.5303e+03,   796,  1.12490 
   97,   3.1890,  44.6371,  30.2701, -30.6455,  39.4243, 417.1000,  40.6000, 417.8000,  67.1100, 6.7931e+03,   796,  0.89729 
   98,   3.1930,  25.3838,  25.8003, -10.4288,  52.5469,  22.5600,  10.6500,  23.2600,  38.3000, 7.2691e+03,   796,  0.94096 
   99,   3.1970,  20.6237,  14.5489,  -1.3477, 377.5340,   1.2470,   1.6710,   0.6960, 654.1000, 7.6460e+03,   796,  1.07080 
  100,   3.2010,  47.0483,  25.9634, -27.9266,  37.4107, 161.5000,  18.5700, 162.3000,  36.7200, 7.7424e+03,   796,  0.98936 
  101,   3.2050,  49.6408,  26.4311, -28.2178,  43.4395,  59.7400,   9.4510,  60.4300,  21.2200, 6.3518e+03,   796,  0.67516 
  102,   3.2090,  48.4984,  27.2433, -26.3771,  44.1302,  69.5700,  11.1500,  70.2900,  26.1500, 7.0385e+03,   796,  0.69002 
  104,   3.2170,  40.1373,  19.1421,  -8.8738,  98.5503,   2.1350,   1.7850,   2.6130,  24.5200, 8.7718e+03,   796,  1.28204 
  105,   3.2210,  37.2031,  18.2568,  -7.0737, 113.9690,   1.6770,   1.6700,   2.0230,  32.4000, 8.8328e+03,   796,  1.32727 
  106,   3.2250,  35.8751,  22.0235, -11.3014,  59.9349,   7.4210,   3.5760,   8.0690,  19.6600, 6.6265e+03,   796,  0.62429 
  107,   3.2290,  25.7816,  16.3920,  -3.8112, 112.5680,   1.3120,   1.8090,   1.4800,  45.2200, 6.7013e+03,   796,  0.93616 
  108,   3.2330,  34.9825,  26.1142, -16.4807,  47.3389,  36.5100,  10.0900,  37.2100,  29.1200, 6.7880e+03,   796,  0.98046 
  109,   3.2370,  30.9152,  22.6350, -14.4490,  29.8939, 354.3000,  40.2100, 355.3000,  94.9100, 7.3955e+03,   796,  1.23555 
  110,   3.2410,   0.0000,  93.8381,   1.3101,   0.0000,   0.0000,   0.0000,   0.0000,   0.0000, 7.3955e+03,   796,  1.10214 
  112,   3.2490,  52.2311,  39.2137, -39.3733,  48.6089, 858.1000,  72.6300, 858.7000, 110.1000, 5.7380e+03,   796,  1.00718 
  113,   3.2530,  59.4013,  33.0097, -45.6487,  41.0508, 771.4000,  49.7700, 772.0000,  72.3000, 6.7916e+03,   796,  0.76309 
  114,   3.2570,  39.9890,  32.1719, -25.9702,  47.7259, 131.3000,  23.3200, 131.9000,  45.0700, 6.3252e+03,   796,  0.57759 
  115,   3.2610,  48.7133,  33.1548, -36.3403,  39.1605, 1645.0000,  98.0100, 1646.0000, 141.9000, 6.2916e+03,   796,  1.14337 
  116,   3.2650,  59.2658,  12.2054, -55.7392,   9.3149, 657.3000,  16.5600, 654.0000,  17.1100, 6.7939e+03,   796,  1.06911 
  118,   3.2730,  33.7477,  38.8326, -22.0364,  50.6186, 462.1000,  74.7200, 462.7000, 135.9000, 5.6987e+03,   796,  0.99789 
  119,   3.2770,  48.8349,  36.6916, -36.6350,  46.0461, 734.7000,  66.3300, 735.3000, 100.9000, 6.6121e+03,   796,  0.69799 
  120,   3.2810,  52.2700,  36.8587, -39.2631,  47.4110, 544.8000,  51.4200, 545.4000,  79.6500, 6.5448e+03,   796,  1.36193 
  121,   3.2850,  26.9582,  30.8331, -14.6679,  44.4995, 158.1000,  37.0800, 158.8000,  82.9800, 6.4574e+03,   796,  0.87298 
  122,   3.2890,  43.4437,  39.1533, -32.6031,  50.0790, 597.9000,  70.0100, 598.5000, 109.3000, 6.1276e+03,   796,  0.68066 
  123,   3.2930,  37.8863,  40.6324, -27.7095,  51.9084, 680.3000,  93.9600, 680.9000, 151.4000, 7.1080e+03,   796,  1.01060 
  124,   3.2970,  27.4083,  37.0123, -15.8297,  63.6427,  67.9400,  28.0000,  68.5500,  72.3200, 7.4350e+03,   796,  0.93682 
  125,   3.3010,  41.7432,  31.8938, -27.9810,  39.3863, 946.1000,  81.2900, 946.9000, 134.1000, 8.8047e+03,   796,  1.43244 
  126,   3.3050,  36.0835,  42.8408, -24.6868,  56.6696, 459.8000,  80.2500, 460.3000, 143.9000, 6.0967e+03,   796,  0.80037 
  127,   3.3090,  63.0774,  42.1348, -51.2976,  50.5800, 1579.0000, 100.1000, 1580.0000, 138.5000, 6.5108e+03,   796,  1.11120 
  128,   3.3130,  49.3297,  41.1383, -37.4070,  52.3315, 734.6000,  77.3800, 735.2000, 120.1000, 7.2873e+03,   796,  1.14502 
  129,   3.3170,  58.0706,  43.8365, -44.7580,  53.7850, 1283.0000, 102.8000, 1284.0000, 153.9000, 7.5054e+03,   796,  1.28171 
  131,   3.3250,  31.1837,  38.5709, -17.0356,  68.0124,  58.2400,  22.8600,  58.7800,  65.1100, 6.2656e+03,   796,  0.94128 
  132,   3.3290,  43.1744,  37.5992, -27.1395,  54.8948, 173.7000,  31.1500, 174.3000,  64.1100, 6.4977e+03,   796,  0.96691 
  133,   3.3330,  81.2715,  38.9414, -63.2682,  47.1046, 1205.0000,  57.4800, 1206.0000,  82.6900, 5.6955e+03,   796,  0.87106 
  134,   3.3370,  49.2813,  37.9247, -30.6428,  59.5839, 111.6000,  21.3600, 112.2000,  47.5400, 7.0177e+03,   796,  1.18492 
  135,   3.3410,  66.8580,  35.6936, -44.9764,  47.4070, 402.9000,  32.7800, 403.5000,  57.7300, 7.5725e+03,   796,  1.03206 
  136,   3.3450,  54.6524,  34.9020, -28.4168,  59.0575,  63.0300,  12.0500,  63.6000,  33.2700, 6.2351e+03,   796,  1.10945 
  137,   3.3490, 114.1610,  37.5101, -84.6240,  46.7076, 846.9000,  32.1800, 847.6000,  49.4300, 6.8866e+03,   796,  1.36642 
  138,   3.3530,  81.0871,  34.4568, -47.4227,  50.0199, 162.8000,  14.2100, 163.4000,  30.5400, 6.2617e+03,   796,  0.91531 
  139,   3.3570,  48.9477,  23.9377,  -7.0818,  94.4396,   3.5190,   2.0110,   4.0400,  38.0100, 6.6385e+03,   796,  0.93497 
  140,   3.3610, 136.4600,  32.8746, -91.0224,  42.0870, 588.6000,  18.8000, 589.4000,  32.0600, 8.2596e+03,   796,  1.30202 
  141,   3.3650, 163.3570,  34.3446, -117.8910,  42.7826, 747.5000,  18.3400, 748.1000,  28.5600, 6.3030e+03,   796,  0.92834 
  142,   3.3690,  61.1936,  27.7573, -22.3171,  57.0611,  24.2700,   5.0790,  24.9700,  21.4500, 8.0900e+03,   796,  0.96269 
  144,   3.3770,  61.4825,  41.8079, -51.5546,  50.2672, 1432.0000,  93.2400, 1432.0000, 125.2000, 5.7272e+03,   796,  0.92190 
  145,   3.3810,   0.0000, -10.0551,   1.4257,   0.0000,   0.0000,   0.0000,   0.0000,   0.0000, 5.7272e+03,   796,  0.96806 
  146,   3.3850, -16.5922,  22.0965,   3.9014,  22.9777,   0.0000, 3643.0000,   0.0000,   0.0000, 7.5136e+03,   796,  0.88742 
  147,   3.3890, -22.4810,  20.7146,   1.0787, 274.0240,   1.0940,   2.3600,   1.2280, 684.0000, 7.2476e+03,   796,  1.37916 
  149,   3.3970, -43.4363,  19.3301,   5.6819,  80.3189,   2.7520,   1.7630,   3.3010,  32.1700, 7.4565e+03,   796,  0.67094 
  150,   3.4010, -46.1546,  19.1534,   5.4653, 113.9790,   1.4190,   1.1360,   1.7330,  35.0800, 5.4164e+03,   796,  0.77054 
  151,   3.4050, -101.5970,  26.8544,  65.7419,  35.1305, 339.8000,  13.2500, 340.5000,  22.9100, 5.4429e+03,   796,  0.79168 
  152,   3.4090, -35.5728,  18.3796,   2.9623, 196.3780,   1.0680,   1.2670,   1.1320, 124.7000, 6.4248e+03,   796,  1.09079 
  153,   3.4130, -35.6954,  19.3181,   4.7607, 107.3190,   1.7080,   1.7000,   2.0920,  43.0100, 6.6671e+03,   796,  0.67044 
  154,   3.4170, -36.5688,  16.2102,   3.9933, 166.3070,   1.1690,   1.1530,   1.0960,  68.0300, 7.1574e+03,   796,  0.76739 
  155,   3.4210, -41.9759,  23.0099,  12.7079,  61.2894,   8.7660,   3.5810,   9.4530,  20.6400, 7.7022e+03,   796,  0.86841 
  156,   3.4250, -38.6565,  19.8143,   7.2741,  87.3608,   2.6220,   2.0150,   3.1590,  27.9500, 7.9355e+03,   796,  0.85652 
  157,   3.4290, -47.0517,  23.1288,  15.8010,  50.5550,  16.4100,   4.3890,  17.1500,  19.4200, 7.5054e+03,   796,  0.78161 
  158,   3.4330, -55.0436,  25.6636,  23.4288,  47.5469,  31.3200,   5.6750,  31.9900,  18.3000, 6.2614e+03,   796,  0.92572 
  159,   3.4370, -35.8024,  18.0896,   2.3719, 447.1360,   0.9821,   1.1200,   0.8156, 571.0000, 6.7034e+03,   796,  0.99413 
  160,   3.4410, -39.7586,  22.8055,   9.1274,  75.8695,   4.9170,   2.8310,   5.5250,  26.6000, 7.4032e+03,   796,  1.06960 
  161,   3.4450, -38.0860,  19.4016,   5.0335, 163.1480,   1.3010,   1.4590,   1.5230,  67.1700, 7.6149e+03,   796,  0.83337 
  162,   3.4490, -42.2521,  22.4485,   9.1267,  75.3876,   4.3470,   2.3680,   4.9040,  23.5900, 6.2075e+03,   796,  0.61557 
  163,   3.4530, -50.5459,  26.1022,  19.2443,  44.6216,  45.1400,   7.6050,  45.7900,  26.0800, 5.7092e+03,   796,  1.11304 
  164,   3.4570, -47.8997,  25.3679,  17.0662,  48.3754,  23.9600,   5.2370,  24.5500,  20.5100, 4.8246e+03,   796,  0.62879 
  165,   3.4610, -31.4646,  19.5619,   1.5346, 1164.3800,   0.8232,   1.1900,   0.6952, 4924.0000, 5.3784e+03,   796,  0.97454 
  166,   3.4650, -36.0318,  20.2929,   3.3612, 232.8980,   1.0560,   1.3720,   1.1960, 156.3000, 6.2912e+03,   796,  0.93677 
  168,   3.4730, -39.4603,  21.1128,   4.9244, 138.0430,   1.7280,   1.7610,   2.1160,  65.9900, 8.1344e+03,   796,  1.38149 
  170,   3.4810, -38.5546,  22.2986,   5.8036, 169.6790,   1.5790,   1.8000,   1.9350,  75.0800, 7.8096e+03,   796,  1.34574 
  171,   3.4850, -39.6084,  26.9371,   8.9692, 100.7410,   4.9080,   3.3910,   5.4750,  42.8000, 7.9379e+03,   796,  1.05439 
